tau,u_rho_0_r_2.0914885,u_rho_0.25_r_3.765829,u_rho_0.5_r_5.4401696,u_rho_0.75_r_7.1145101,u_rho_1_r_8.7888507
0.0,1.457167719820518e-16,0.0006600401974941605,0.6327368805949284,6.982860527651735e-08,-4.163336342344337e-17
0.04,9.284240043427872e-15,0.0006663734194284343,0.6326458928971572,7.17435273030198e-08,-2.0261570199409107e-15
0.08,1.8443579996585413e-14,0.0006852814915339137,0.6322923610907718,7.901228231410595e-08,-3.7539416020138106e-15
0.12000000000000001,2.73600586631062e-14,0.0007167569219733681,0.6315488987797585,9.511557363950374e-08,-5.80785419757035e-15
0.16,3.602673714908633e-14,0.0007609714600798623,0.6302865680732284,1.257970332103897e-07,-7.500944310123714e-15
0.19999999999999998,4.4325654258159375e-14,0.0008182700037124464,0.6283779082127541,1.8038593628186272e-07,-9.020562075079397e-15
0.23999999999999996,5.2138848793958914e-14,0.0008891661121348225,0.6256999699109622,2.738111381378472e-07,-1.0422218643668657e-14
0.27999999999999997,5.940387071134978e-14,0.0009743389826710677,0.6221372585986361,4.2962047116720803e-07,-1.1664280652468051e-14
0.32,6.618317005546714e-14,0.0010746317529240976,0.617584493835283,6.844384501381029e-07,-1.2399803406282217e-14
0.36000000000000004,7.235184673604067e-14,0.0011910509939590391,0.6119491000237465,1.0944471101476116e-06,-1.284389261613228e-14
0.4000000000000001,7.770173393595314e-14,0.00132476726336727,0.6051533547968438,1.744664598665735e-06,-1.3197776205231548e-14
0.4400000000000001,8.251038741136085e-14,0.0014771165903255945,0.5971361353716532,2.762026593355893e-06,-1.2878587085651816e-14
0.48000000000000015,8.644474025487625e-14,0.0016496027675625725,0.5878542190431822,4.333546829275031e-06,-1.2663481374630692e-14
0.5200000000000001,8.952907859516301e-14,0.001843900327448203,0.5772831110006027,6.731140853279832e-06,-1.1848161340921592e-14
0.5600000000000002,9.239831122442865e-14,0.0020618580811913156,0.5654173899711671,1.0345031677641559e-05,-1.066507993030541e-14
0.6000000000000002,9.439671266875393e-14,0.002305503101361569,0.5522705790393849,1.5727999896028924e-05,-9.117706589734098e-15
0.6400000000000002,9.59926582666526e-14,0.0025770450286621803,0.5378745646379055,2.3653067705941763e-05,-7.226858000919378e-15
0.6800000000000003,9.722431193459613e-14,0.0028788805840978485,0.5222786005565535,3.518747975019346e-05,-4.812122922359663e-15
0.7200000000000003,9.823045155066268e-14,0.00321359816748909,0.5055479453944512,5.1786016875332574e-05,-1.8457457784393227e-15
0.7600000000000003,9.879250195687916e-14,0.0035839824227324422,0.4877621908608496,7.5406695174033e-05,1.4051260155412137e-15
0.8000000000000004,9.946557466555817e-14,0.003993018649392575,0.469013344537231,0.00010865169762950405,5.054984208996416e-15
0.8400000000000004,1.0026701691145945e-13,0.0044438969392429535,0.44940373411590795,0.00015493589090582321,9.419548474554063e-15
0.8800000000000004,1.0114131754335176e-13,0.004940015915330838,0.4290438008307062,0.0002186844282280609,1.4509227153070015e-14
0.9200000000000005,1.0253256577108516e-13,0.005484985950168171,0.4080498480092668,0.00030555967241445436,2.1135870831301418e-14
0.9600000000000005,1.0486750356974994e-13,0.006082631738830273,0.3865418067106728,0.00042271594959228387,3.144012827860365e-14
1.0000000000000004,1.0826756158266448e-13,0.00673699410222145,0.36464107463871437,0.0005790784492900394,4.9672072011119894e-14
1.0400000000000005,1.1364520435819259e-13,0.007452330895642782,0.3424684773520642,0.0007856399419928148,8.593126210598712e-14
1.0800000000000005,1.2145492944704017e-13,0.008233116898189285,0.32014239265484556,0.0010557659572133088,1.640493296761747e-13
1.1200000000000006,1.3279655153297654e-13,0.009084042559541157,0.2977770703640398,0.001405495771164958,3.3490918371903433e-13
1.1600000000000006,1.4863804631559674e-13,0.010010011482482276,0.2754811708069382,0.0018538231647091327,7.084680064828319e-13
1.2000000000000006,1.70908426300187e-13,0.011016136522105355,0.25335653675389114,0.00242293765309258,1.5189204061183403e-12
1.2400000000000007,2.0185242366466127e-13,0.012107734386227656,0.23149720533794974,0.003138404027630118,3.2546257355825503e-12
1.2800000000000007,2.4426294320534225e-13,0.013290318626140447,0.20998865909355552,0.004029255885935848,6.915440442512022e-12
1.3200000000000007,3.0204311274317774e-13,0.014569590912520206,0.18890730873918776,0.005127977673761136,1.4517474028474808e-11
1.3600000000000008,3.801785275481251e-13,0.01595143049821455,0.1683201948507582,0.00647034991804718,3.005812265755026e-11
1.4000000000000008,4.854658341990614e-13,0.017441881777724426,0.1482848911829143,0.00809513405745705,6.133528407392674e-11
1.4400000000000008,6.267243668478528e-13,0.019047139862578534,0.1288495891020934,0.010043576764166319,1.233176304127337e-10
1.4800000000000009,8.154553421402255e-13,0.02077353410246576,0.11005334036178666,0.01235871899250135,2.4428848527380254e-10
1.520000000000001,1.0671602490575083e-12,0.02262750949394958,0.09192643420487695,0.015084502158545551,4.768597877680136e-10
1.560000000000001,1.401521260158134e-12,0.024615605931844933,0.07449088442083024,0.018264672684909673,9.173969049702801e-10
1.600000000000001,1.8445661664756585e-12,0.026744435272840282,0.057761002399099926,0.02194149632680536,1.739737486017301e-09
1.640000000000001,2.430410039888642e-12,0.02902065619667317,0.04174403327583487,0.026154304779990117,3.2527835529261306e-09
1.680000000000001,3.203121795580799e-12,0.03145094686703487,0.0264408338368117,0.030937908486135562,5.997329421275621e-09
1.720000000000001,4.219753019230055e-12,0.03404197541231167,0.011846572785776666,0.0363209206318344,1.0906312384456607e-08
1.7600000000000011,5.55446660888137e-12,0.03680036826516193,-0.002048563808232929,0.04232404736629294,1.956592275004221e-08
1.8000000000000012,7.303182364415406e-12,0.039732676419658414,-0.01525867671996578,0.04895840751809013,3.463449813750907e-08
1.8400000000000012,9.58951668073027e-12,0.042845339685155095,-0.027801479869008577,0.056223950900488005,6.050426738790637e-08
1.8800000000000012,1.2572807378541384e-11,0.046144649037013034,-0.039697658782885725,0.06410804708702927,1.0433082088187606e-07
1.9200000000000013,1.6458077956027495e-11,0.049636707185658824,-0.050970269028601745,0.07258431589490394,1.7761037339122931e-07
1.9600000000000013,2.1508100855882617e-11,0.05332738750698384,-0.06164418030941199,0.0816117665041643,2.985598034389858e-07
2.0000000000000013,2.8059984891193324e-11,0.05722229149860288,-0.07174557000584256,0.09113430415599681,4.956539500985957e-07
2.0400000000000014,3.654424332588668e-11,0.06132670494777999,-0.0813014682386107,0.10108065193287874,8.128037571261681e-07
2.0800000000000014,4.7510557987795465e-11,0.06564555301767284,-0.09033935505900259,0.11136472067272066,1.31682236982969e-06
2.1200000000000014,6.165929572476969e-11,0.07018335447872223,-0.09888680913239586,0.12188644325635857,2.1080279442101113e-06
2.1600000000000015,7.988126132785212e-11,0.07494417533128543,-0.10697120626778409,0.1325330711468801,3.335073491102236e-06
2.2000000000000015,1.0330684918624655e-10,0.07993158208375431,-0.11461946534876731,0.14318091207939573,5.215374050022981e-06
2.2400000000000015,1.3336857312973294e-10,0.08514859496718159,-0.12185783862322108,0.15369746918616178,8.062813667268631e-06
2.2800000000000016,1.7187812284547022e-10,0.09059764138262971,-0.1287117428901835,0.1639439245722943,1.2324746487969718e-05
2.3200000000000016,2.2112260633644354e-10,0.0962805098908475,-0.13520562786197854,0.173777895339554,1.8630637353814206e-05
2.3600000000000017,2.839846691138348e-10,0.10219830506525099,-0.14136287785499002,0.1830563780704573,2.7854987940958975e-05
2.4000000000000017,3.640900428369953e-10,0.10835140353834957,-0.147205742951735,0.19163878943817048,4.119742492404016e-05
2.4400000000000017,4.659912108961883e-10,0.11473941157853215,-0.15275529585873265,0.19939000629572212,6.0282937104430556e-05
2.4800000000000018,5.953947265768811e-10,0.1213611245383491,-0.15803141083931285,0.20618330848853897,8.728518011563713e-05
2.520000000000002,7.594396500554268e-10,0.1282144885169568,-0.1630527613098913,0.21190313166204133,0.00012507545513185808
2.560000000000002,9.670424322427706e-10,0.13529656457811012,-0.16783683293631863,0.2164475452150045,0.00017739934481216663
2.600000000000002,1.2293182999334462e-09,0.1426034958609095,-0.17239994933973948,0.21973038179838675,0.00024908199228149824
2.640000000000002,1.5600989181074887e-09,0.1501304779133627,-0.1767573078071372,0.22168295873867666,0.00034626158563955817
2.680000000000002,1.9765655501213786e-09,0.15787173256867543,-0.18092302269061808,0.22225534772144415,0.0004766487300443961
2.720000000000002,2.5000225778448737e-09,0.16582048567103208,-0.18491017446363275,0.22141716618735102,0.0006498070504651829
2.760000000000002,3.156838124240835e-09,0.1739689489414969,-0.1887308626756381,0.2191578813379063,0.000877447608377907
2.800000000000002,3.979590580682757e-09,0.1823083062556133,-0.19239626130464715,0.215486634623384,0.0011737266194208479
2.840000000000002,5.008458529853765e-09,0.19082870458238604,-0.19591667524650394,0.2104316103670581,0.0015555326625805999
2.880000000000002,6.2929059047034386e-09,0.19951924980973995,-0.1993015968985889,0.2040389861535101,0.0020427462642234814
2.920000000000002,7.893718054208243e-09,0.2083680076543822,-0.20255976199296652,0.19637151429263278,0.0026584516608841313
2.960000000000002,9.885459922864825e-09,0.21736200982445816,-0.20569920400950126,0.1875067927312248,0.0034290779717365064
3.000000000000002,1.2359436449976835e-08,0.22648726557168214,-0.20872730665359432,0.1775352900390178,0.004384445248102574
3.0400000000000023,1.5427251077310133e-08,0.23572877873598033,-0.21165085401678896,0.16655819251137777,0.005557690219683099
3.0800000000000023,1.9225074390089025e-08,0.24507057035036744,-0.21447607815277286,0.15468514210746703,0.0069850473097374174
3.1200000000000023,2.3918755465840436e-08,0.25449570683707273,-0.21720870389772456,0.1420319320971027,0.008705462878093349
3.1600000000000024,2.97099296345249e-08,0.26398633378813485,-0.21985399084407903,0.12871822323156493,0.01076002482621127
3.2000000000000024,3.6843302630984454e-08,0.27352371528511404,-0.2224167724422928,0.11486533736013396,0.01319119571140509
3.2400000000000024,4.56153202363363e-08,0.2830882786735637,-0.22490149225770933,0.1005941781031621,0.016041845289582544
3.2800000000000025,5.638446682471043e-08,0.2926596646687858,-0.22731223745078283,0.08602331989782652,0.019354087719260032
3.3200000000000025,6.95834745413626e-08,0.30221678263052454,-0.229652769580241,0.07126729788118726,0.02316793915299543
3.3600000000000025,8.573376736320526e-08,0.31173787080596643,-0.2319265528516956,0.056435122067036825,0.02751982262101324
3.4000000000000026,1.0546251823229102e-07,0.32120056130306707,-0.234136779950052,0.041629030466523304,0.0324409583689602
3.4400000000000026,1.2952274699995492e-07,0.3305819495201404,-0.23628639560402903,0.026943487502576025,0.03795568846232635
3.4800000000000026,1.58816957411545e-07,0.33985866772317147,-0.2383781180362332,0.012464426519558008,0.044079793793994126
3.5200000000000027,1.9442487895690586e-07,0.3490069624297507,-0.24041445845348924,-0.0017312714260504514,0.05081886892393918
3.5600000000000027,2.3763595881354238e-07,0.3580027752281859,-0.2423977387303205,-0.015576075871468309,0.05816682480534419
3.6000000000000028,2.899873420142418e-07,0.36682182663250334,-0.24433010743431105,-0.029011900178005007,0.06610459089396759
3.640000000000003,3.5330817722140084e-07,0.3754397025489611,-0.2462135543361602,-0.041990010844088654,0.07459908604878726
3.680000000000003,4.297711913708868e-07,0.38383194290759776,-0.24804992354007427,-0.05447077630586214,0.08360252186506223
3.720000000000003,5.219526058308777e-07,0.3919741319934328,-0.24984092536213331,-0.06642327986812199,0.0930520927134412
3.760000000000003,6.32901599829927e-07,0.39984198999639214,-0.25158814707577926,-0.07782482173902561,0.10287009409765514
3.800000000000003,7.66220672618334e-07,0.4074114652870027,-0.25329306263486046,-0.08866033468636264,0.11296449551412568
3.840000000000003,9.261584239944609e-07,0.4146588269164846,-0.2549570414759555,-0.09892173672303442,0.12322997651514986
3.880000000000003,1.1177164443015863e-06,0.42156075683514616,-0.2565813564931655,-0.10860724260015708,0.13354941600654746
3.920000000000003,1.3467722050075626e-06,0.42809444132200186,-0.25816719127030835,-0.11772065387079589,0.14379580590756408
3.960000000000003,1.6202200425335933e-06,0.43423766112127615,-0.25971564664759744,-0.12627064501113594,0.15383454215445663
4.000000000000003,1.9461325574121613e-06,0.43996887978791327,-0.26122774669246657,-0.13427006066306163,0.1635260295970677
4.040000000000002,2.333944988219816e-06,0.44526732975431116,-0.26270444413727817,-0.14173523659292764,0.17272852348458112
4.080000000000001,2.794665381639083e-06,0.45011309564413604,-0.26414662534023,-0.14868535453073173,0.1813011196804751
4.12,3.341113644653171e-06,0.4544871943761346,-0.2655551148198603,-0.15514183873092532,0.18910679901542388
4.159999999999999,3.988192857337647e-06,0.45837165162117066,-0.26693067940814463,-0.16112779993406615,0.1960154285893448
4.199999999999998,4.753196525486558e-06,0.461749574199093,-0.26827403206225287,-0.16666753044581362,0.2019066244459996
4.2399999999999975,5.656155762978621e-06,0.4646052180282686,-0.26958583537058345,-0.17178605231126137,0.20667238571106195
4.279999999999997,6.720230719958753e-06,0.4669240512694671,-0.27086670478467184,-0.17650871906114157,0.21021941963977298
4.319999999999996,7.972150902729735e-06,0.46869281233697696,-0.2721172116049705,-0.18086087024469633,0.21247108951280974
4.359999999999995,9.442709372114999e-06,0.4698995624831201,-0.27333788574527307,-0.1848675369363141,0.21336893225611553
4.399999999999994,1.1167316143312345e-05,0.47053373269739285,-0.2745292182976897,-0.18855319559714195,0.21287370925445293
4.439999999999993,1.318661644492125e-05,0.4705861646980256,-0.27569166391752115,-0.1919415670717689,0.2109659712468268
4.479999999999992,1.5547179832403613e-05,0.47004914583146995,-0.27682564304513585,-0.19505545708337726,0.20764613560697542
4.519999999999992,1.83022664578536e-05,0.4689164377339137,-0.27793154397994485,-0.1979166343362299,0.20293409094675338
4.559999999999991,2.1512677103763256e-05,0.4671832986480473,-0.2790097248198242,-0.20054574221897387,0.1968683591470906
4.59999999999999,2.5247693856852993e-05,0.4648464993276465,-0.28006051527778075,-0.20296224010315367,0.18950485805322617
4.639999999999989,2.958611853608184e-05,0.4619043325017964,-0.2810842183863097,-0.2051843703266069,0.180915318742147
4.679999999999988,3.461741618866754e-05,0.4583566159094316,-0.2820811120986974,-0.20722914712061366,0.17118541920630398
4.719999999999987,4.044297110518402e-05,0.45420468895303734,-0.2830514507954892,-0.20911236396418786,0.16041270137698094
4.7599999999999865,4.71774628917343e-05,0.4494514030575419,-0.28399546670343245,-0.21084861611219363,0.14870434065581048
4.799999999999986,5.49503701480214e-05,0.4441011058563744,-0.2849133712334136,-0.2124513353317266,0.13617483668565444
4.839999999999985,6.390760921796967e-05,0.43815961936111303,-0.2858053562432194,-0.21393283418126668,0.12294369123228188
4.879999999999984,7.421331531424352e-05,0.4316342123038699,-0.2866715952303451,-0.21530435746945514,0.10913313410940542
4.919999999999983,8.605177303609018e-05,0.4245335668723458,-0.2875122444595562,-0.2165761388269587,0.09486595146228757
4.959999999999982,9.962950289259948e-05,0.416867740086146,-0.2883274440294448,-0.21775746060951368,0.08026346286087997
4.999999999999981,0.00011517750991053843,0.4086481200893163,-0.28911731888182723,-0.2188567156183168,0.06544368498013058
5.0399999999999805,0.00013295369971681736,0.39988737765799215,-0.2898819797574825,-0.21988146937224115,0.05051971058494443
5.07999999999998,0.00015324546663327693,0.3905994132434411,-0.2906215241014219,-0.22083852189293618,0.03559832247884654
5.119999999999979,0.00017637245730582965,0.38079929988951844,-0.2913360369206185,-0.2217339681677307,0.02077885335948971
5.159999999999978,0.00020268951216927816,0.37050322237959443,-0.29202559159688835,-0.22257325663623267,0.0061522944343146355
5.199999999999977,0.00023258978564940497,0.35972841298129876,-0.29269025065741094,-0.22336124520507317,-0.008199351593102967
5.239999999999976,0.00026650804438126813,0.348493084167943,-0.2933300665051941,-0.22410225443234055,-0.02220348379421987
5.279999999999975,0.00030492414088924974,0.3368163587032436,-0.29394508211162784,-0.22480011764018598,-0.03579709831208437
5.3199999999999745,0.0003483666581160158,0.32471819748099096,-0.29453533167312784,-0.22545822781239722,-0.04892678545396904
5.359999999999974,0.00039741671789775626,0.31221932551365345,-0.29510084123374364,-0.22607958121512176,-0.061548551229345244
5.399999999999973,0.0004527119439643387,0.2993411564636389,-0.29564162927548865,-0.22666681774509254,-0.07362748779169484
5.439999999999972,0.0005149505672865651,0.2861057161081422,-0.29615770727804897,-0.22722225806243251,-0.08513731807080235
5.479999999999971,0.0005848956586203755,0.27253556512330396,-0.2966490802494314,-0.22774793760604983,-0.09605983984188995
5.51999999999997,0.0006633794698861842,0.25865372156590305,-0.29711574722902745,-0.22824563762042288,-0.10638429369761407
5.559999999999969,0.0007513078626155134,0.24448358342115228,-0.29755770176449214,-0.2287169133446812,-0.11610667800476387
5.599999999999969,0.0008496647980835159,0.23004885157349567,-0.2979749323637606,-0.22916311952970636,-0.12522903207652883
5.639999999999968,0.0009595168599624282,0.2153734535437943,-0.2983674229234664,-0.22958543345775934,-0.13375870660570205
5.679999999999967,0.0010820177763866123,0.20048146832108418,-0.29873515313495247,-0.2299848756429655,-0.14170763800692548
5.719999999999966,0.0012184129042556308,0.1853970526003802,-0.29907809886902015,-0.23036232839087595,-0.1490916408172136
5.759999999999965,0.0013700436344432076,0.17014436871995764,-0.2993962325404955,-0.23071855239208547,-0.15592972979872094
5.799999999999964,0.0015383516723639357,0.15474751457234762,-0.29968952345364996,-0.23105420151929157,-0.1622434809553829
5.839999999999963,0.001724883144127179,0.13923045574312057,-0.2999579381294575,-0.23136983598981556,-0.16805643837868245
5.879999999999963,0.001931292474318197,0.12361696011057946,-0.3002014406156287,-0.23166593404702052,-0.17339357172484876
5.919999999999962,0.0021593459773446844,0.10793053511792802,-0.30041999278031745,-0.23194290230467815,-0.17828078722901275
5.959999999999961,0.002410925100336775,0.09219436790748664,-0.300613554590352,-0.23220108488850374,-0.18274449350091576
5.99999999999996,0.002688029251839641,0.0764312684842798,-0.3007820843748054,-0.2324407714990859,-0.18681122192989352
6.039999999999959,0.002992778147061642,0.060663616053973565,-0.3009255390746806,-0.2326622045105043,-0.19050730035274485
6.079999999999958,0.003327413597309564,0.04491330865785843,-0.3010438744794503,-0.23286558520923564,-0.19385857769769888
6.1199999999999575,0.0036943006685122848,0.029201716205506073,-0.3011370454511559,-0.23305107926859747,-0.19689019659614698
6.159999999999957,0.004095928131497548,0.01354963698401336,-0.3012050061367342,-0.23321882154510354,-0.1996264104320043
6.199999999999956,0.004534908124991077,-0.002022742298483607,-0.3012477101692166,-0.23336892027472445,-0.20209044095471096
6.239999999999955,0.005013974951256425,-0.01749588289796085,-0.30126511085840124,-0.233501460739226,-0.20430437239276106
6.279999999999954,0.005535982923928928,-0.032850926831171606,-0.3012571613715832,-0.23361650846550766,-0.2062890779467509
6.319999999999953,0.00610390318801346,-0.0480697260857548,-0.3012238149048895,-0.2337141120141741,-0.20806417459125276
6.359999999999952,0.00672081943326229,-0.06313486826391407,-0.30116502484574226,-0.23379430540746388,-0.2096480022515967
6.3999999999999515,0.007389922424301351,-0.07802969869699433,-0.30108074492694786,-0.23385711024107242,-0.21105762362481426
6.439999999999951,0.008114503273976337,-0.09273833908445263,-0.3009709293728826,-0.2339025375193609,-0.21230884116549192
